Time,propulsion/engine[0]/thrust-N,propulsion/tank[0]/contents-kg,position/h-agl-m,velocities/vc-ms,attitude/phi-deg,attitude/theta-deg,attitude/psi-deg
0,0,4.06999668005879389,3.500000004990373,0,5.16909079005070285e-15,79.9999999956962284,359.99999998063322
0.1,503.116209407653571,4.06976155756026703,3.50000000597780891,2.86714757189186242,-4.85214529408620087e-14,79.9999999957395289,359.999999980633163
0.2,1004.95613733198149,4.0358732192392095,3.58452295678905752,3.18156724331175234,-0.00170338775190375822,80.0001040100978287,359.998270315473349
0.3,1327.14072827569157,3.97949207331217991,3.98390761290703166,6.12563402191599771,-0.00789685714429426595,80.0039084794657498,359.991981331200634
0.4,1401.03044611494806,3.9159567238719406,4.83245889466657808,10.3867435942859814,-0.022880874803819156,80.0154317511232023,359.976766573438738
0.5,1414.70908300904716,3.85057402838245322,6.16828978122176519,14.9883503058056036,-0.0529522503536866418,80.0385447109170514,359.946233726876017
0.6,1412.10497707203513,3.78502682670319679,8.00026970952404604,19.6718556024153912,-0.105106867013803243,80.076450377660862,359.893283677340776
0.7,1399.52682274296171,3.71990679639984112,10.3285056477937083,24.3535544995804578,-0.186773609396425289,80.1312157584271603,359.810383106324537
0.8,1388.38161045990319,3.65532533415352878,13.149515864898655,29.0106729226930504,-0.305817738267799011,80.2035653918808293,359.68956376199219
0.9,1379.80095869239267,3.59112583275160357,16.4602558313987899,33.6503803479514616,-0.470577635308175146,80.2927353750485508,359.522387655565296
1,1371.12182917444375,3.52743753801435078,20.2579827864770223,38.2576005760770101,-0.689837161125610554,80.3963442339262429,359.299976809225939
1.1,1360.51655841528418,3.46412777018232099,24.5398695349242999,42.841272445294976,-0.972611067167656107,80.5102776114209604,359.013231062829448
1.2,1351.2534438257801,3.40133033970291443,29.3027716105572544,47.3874865019326634,-1.32768758809457399,80.6286330318076949,358.653289493483328
1.3,1338.42914184473716,3.33898285972289344,34.5434947294961034,51.9000564510944784,-1.76282608672647645,80.743768602712521,358.212337837482664
1.4,1330.86230729707813,3.27713358670706079,40.258172674947474,56.3730096797548583,-2.28359691477715954,80.846513745120177,357.68477410664633
1.5,1322.98312644323119,3.21562200376204688,46.4439986969600085,60.819311458377797,-2.89192571164997103,80.9265916535665895,357.068669647133163
1.6,1318.23363264815225,3.15442796120534741,53.0985051672089057,65.2394991962449922,-3.5846087311844288,80.9732891835448783,356.36725777206567
1.7,1315.71817409680966,3.09338911366345348,60.2201241748788618,69.6469920431972582,-4.3522375620627205,80.9763910645846892,355.590010472256154
1.8,1311.53763663700624,3.03248494664759827,67.8080746979180873,74.0427544918441924,-5.17914669337364497,80.9273459660342525,354.752687850135146
1.9,1305.2024385087168,2.97187859951776012,75.8606452733111922,78.4112541590946108,-6.04485825610093741,80.8205897767362558,353.875884587810731
2,1313.07516930026554,2.91121239091039996,84.376053262831789,82.7833946725771028,-6.92708068134873578,80.6548747711903786,352.982015736880726
2.1,1313.91644906477109,2.85026053016229453,93.356645143076932,87.1791371415415028,-7.80566330040882939,80.434357505861982,352.091340153559088
2.2,1308.11889577633838,2.78950222233972722,102.802449197488187,91.5543746059062187,-8.66632997169462449,80.1692356220031144,351.218201849418449
2.3,1305.71070310331766,2.72893078944779921,112.710703867366163,95.9085474740895449,-9.50302761810838703,79.8756816332736861,350.368659237347572
2.4,1303.71971411777463,2.66845535528774791,123.079422230785667,100.249006339645035,-10.3182435204925955,79.5748012416414241,349.540156652790756
2.5,1304.25912167665524,2.607981006733604,133.907113592328272,104.583452128607576,-11.1213048586368188,79.2905375681091726,348.72323461333076
2.6,1297.26565724454372,2.54773440457149825,145.192237740711619,108.890511388231729,-11.9251563326300705,79.0466124566843433,347.904791151620145
2.7,1296.21529965454647,2.48763912898345607,156.931462316704653,113.176073387353313,-12.7421632171793782,78.8628103740982596,347.072349445593829
2.8,1287.97075738426361,2.42774797037523138,169.122807454751069,117.43474797803492,-13.5793098520092599,78.7512016754642588,346.218954025916446
2.9,1283.99868388525874,2.36813882317283042,181.762746550534359,121.658349138282134,-14.4330349411402334,78.7131140943187404,345.348434240710787
3,1275.48808373581596,2.30878148162958574,194.848617641936869,125.849019384643825,-15.2842429168855727,78.7377365933789406,344.480464600801156
3.1,1266.99953314173331,2.2498727750729044,208.376529556644897,129.987610038972463,-16.0949130513021643,78.8030862810073103,343.653964895252386
3.2,1262.86476887383697,2.19121792347351851,222.342686493182867,134.091266946505812,-16.8089095921697975,78.8796054226111352,342.926209122620719
3.3,1255.72756995078794,2.13283900427620798,236.744586319078536,138.157291153102619,-17.3599781667956208,78.9359970428384941,342.36465249466346
3.4,1247.17311813461447,2.07482107387715553,251.578681391216179,142.176994519797944,-17.6878606173942998,78.9461839227399196,342.030570468086353
3.5,1239.94181281309852,2.01720047134741076,266.840529793283622,146.146256771321333,-17.758371277663116,78.8958189747338707,341.958725276993846
3.6,1236.39213861521262,1.95976792216874562,282.526125664844926,150.084055962891966,-17.5781527713945174,78.7866412404388967,342.142420710028205
3.7,1230.43665395691983,1.90259899700741841,298.632197223726337,153.98280099106816,-17.1953448548357777,78.6371883127621203,342.532784337583848
3.8,1224.77660679076735,1.84568747337270578,315.154483695238923,157.842416684770456,-16.6852211670404706,78.4789738142113009,343.053257597192783
3.9,1221.35740621061723,1.78897882502086314,332.088902386793052,161.66741978551326,-16.128548265037324,78.3482904335531316,343.621518513708963
4,1213.99074060570297,1.73249411373514506,349.431939772375927,165.455356204758431,-15.5927472809063499,78.2753755007483107,344.168675968024502
4.1,1204.60940141449032,1.6764431714708139,367.178855497184145,169.185684421198488,-15.121495868217977,78.2741547281782175,344.649981719916639
4.2,1198.32561057335465,1.62075048595679583,385.324419878823164,172.864960418177105,-14.7329465128126245,78.3363281664053375,345.046776342715702
4.3,1191.95304047940022,1.56533995969746376,403.864799384993432,176.499975732220065,-14.4245618247858545,78.4326392782372039,345.361612321155178
4.4,1184.70461957531666,1.51023275571224991,422.796465322484892,180.088191567329631,-14.1829738896053037,78.5217868595238713,345.608168689065906
4.5,1175.13149241112342,1.45551751967804677,442.115315162932518,183.62064318879689,-13.9971938005764507,78.5644603259537462,345.797722186157046
4.6,1166.31447551534848,1.40124681482075641,461.816025693991492,187.091814500556495,-13.8711404530858058,78.5375764866254826,345.9263302889334
4.7,1156.85321546975706,1.34738481417732325,481.892960020537998,190.504864847709058,-13.8291365572738911,78.4430543299071132,345.969191536611049
4.8,1153.75481662822926,1.29379185461399016,502.340537665584122,193.872899610856649,-13.9103356560668061,78.3070483091151459,345.886285819831528
4.9,1146.26166796480447,1.2404929555216746,523.154321328869514,197.193407737066138,-14.1545693734569564,78.1691982701770911,345.63680458417906
5,1139.16807701504968,1.18746720377404347,544.329107578006415,200.468091141666719,-14.5861131673138029,78.0658628330351831,345.1957985012275
5.1,1129.46372485122015,1.13487770409825628,565.859597337886839,203.680859839921027,-15.2002382871681068,78.0144803372758702,344.568034051101165
5.2,1122.36360949013374,1.08267855269814017,587.739904176866617,206.835897952459021,-15.9549876665065327,78.0063698855021954,343.79644516725898
5.3,1114.83695513407747,1.03080249599712359,609.965378636903893,209.939638388832293,-16.7719589464044461,78.0118069652307469,342.961251271974845
5.4,1106.14518406120578,0.979313927717530452,632.531357120576445,212.98555574098873,-17.5517152664607607,77.9953325273750124,342.164094135307096
5.5,1100.64567015187663,0.928137085962108976,655.432817470598366,215.980879321671409,-18.2038788365825539,77.9339361952999923,341.497285546220098
5.6,1093.89800022455961,0.877249920188933774,678.665259642548904,218.927750439550863,-18.6782962114112294,77.8290424115604509,341.012065416226733
5.7,1085.61514139553992,0.826691422770974405,702.223514569981944,221.822235679755181,-18.9765472617617981,77.7062099455277178,340.706891143638131
5.8,1078.43997952747486,0.7765408299880594,726.101499958076829,224.656380635064295,-19.1356975666016247,77.6025329129604557,340.543974751850953
5.9,1070.94316968724843,0.726674012254676982,750.293648833692487,227.442566235548128,-19.1971638463458838,77.5479287039138825,340.481033991435083
6,1061.3051646247618,0.677224329082890097,774.794674444403881,230.167520892723161,-19.1815217898535195,77.549932009444305,340.497052149678836
6.1,1055.48514919007425,0.628152415353154581,799.598913397147044,232.835090347317561,-19.0827374961101661,77.5901826194361632,340.598205828642676
6.2,1048.14001575282668,0.579360344058609145,824.702197789937259,235.455188902721346,-18.8837297846926262,77.6346707152930264,340.801953055131037
6.3,1040.14675437567871,0.530928863162932529,850.100081399286069,238.019683711187213,-18.5841750512759738,77.6521120165735965,341.108605514139867
6.4,1029.30000760917255,0.482939523926471548,875.787160563813586,240.520453470814999,-18.2223151478201331,77.6301122520627871,341.479043710768963
6.5,1021.59971567246339,0.435373198171496945,901.756971217201453,242.959427335410368,-17.873747776536014,77.579915807017187,341.835924779564323
6.6,997.980776140856278,0.388221290370239891,928.003654288144389,245.338035736984665,-17.6266006456014637,77.5270702920583119,342.089016634421341
6.7,875.4074099658867,0.344461372621472361,954.509079806615887,247.356464654308525,-17.5495269472482356,77.4938146729547839,342.167955014054769
6.8,674.979144525833476,0.30868142882395988,981.211440928367324,248.550810531603105,-17.6697819645130316,77.4842940793759993,342.044771662796279
6.9,541.048978020564732,0.280580387285707111,1008.02052510642534,248.954899254510764,-17.968934115701277,77.4821707986099568,341.738334647424779
7,440.976435598784917,0.257879911126112193,1034.86845130260599,248.807684829870055,-18.3960764028777071,77.4620502494680636,341.300775645623162
7.1,407.838043136309693,0.238052576949577932,1061.70974739829376,248.370854235912077,-18.8918173817287318,77.4064439101053807,340.792872196216535
7.2,377.159820377926849,0.219696370905229504,1088.52448299844878,247.791095688286646,-19.4103352586365929,77.3167579169055728,340.261481312994306
7.3,350.901121017119351,0.2026669758147574,1115.29803616754543,247.084629340909771,-19.9269249818472289,77.2119538871140918,339.731860661647829
7.4,327.344187080601671,0.186769590089389204,1142.01780194870162,246.272713108622156,-20.4286436693405733,77.1169930159776982,339.217279307510466
7.5,305.345212591687414,0.171922785105868919,1168.67280089479709,245.364856467809574,-20.8979686937078064,77.0490819856269411,338.735764604960195
7.6,284.766626762889757,0.158057784762068027,1195.25313394291197,244.36916042648312,-21.3029053867086127,77.0100291371238228,338.320222448804202
7.7,265.542969279469503,0.145110959425345076,1221.7498756649893,243.293108204896811,-21.6011471096763401,76.9882900793717369,338.014133673495792
7.8,247.593567531608301,0.133021543693158023,1248.15489440149577,242.143804675419574,-21.75645500898489,76.9681009679826502,337.854726859142204
7.9,230.935487712844093,0.121732324090357794,1274.46066054976745,240.927908332893111,-21.7572522907236205,76.9393919160039985,337.853909004621698
8,215.827280720244516,0.111173592739919821,1300.66020026259093,239.653259115075599,-21.625233595094965,76.9027135424900337,337.989444024490354
8.1,201.685782180051433,0.101289714827069902,1326.74717287821272,238.3261871710896,-21.4084452084526156,76.8670867248908962,338.212039155786101
8.2,188.449193797989608,0.0920375575977763344,1352.71576456677121,236.951664218645334,-21.164014240782965,76.8429281511977393,338.463048047976258
8.3,176.059667301520079,0.0833767450958050466,1378.56073384430692,235.534313252918338,-20.9412055315795484,76.83468041976937,338.691867912202611
8.4,163.90850627865629,0.0752745442437356554,1404.27742021880067,234.077929807110252,-20.7726002279263078,76.8374213253017615,338.865023609954335
8.5,151.740046579838122,0.0677423611753911331,1429.86140501832961,232.581793522073696,-20.6747081577507359,76.8390309208334799,338.965556293502743
8.6,140.44733963949173,0.0607515403388184938,1455.30834633197946,231.049213079436697,-20.6544756786178105,76.826220148270977,338.98633462129078
8.7,129.967429880240758,0.0542631722885979634,1480.61425491818409,229.484504198779348,-20.7164236429760535,76.7907945791832276,338.922707393726853
8.8,120.241886638136336,0.0482411441263421933,1505.77544281887981,227.891644257287453,-20.8660939597206188,76.7328390495930961,338.768950864735586
8.9,111.216478945357352,0.0426519385038637636,1530.78850794348364,226.275055876545736,-21.1082962289889089,76.6595540421105994,338.5200686890322
9,102.840873729846365,0.0374644470726311143,1555.65038028760841,224.639422317740127,-21.439271458504539,76.5799958513281638,338.179857759617789
9.1,95.1614430303251453,0.0326496222901117225,1580.35836747056601,222.985673031872977,-21.8402267433598674,76.5000133349721381,337.767577723851218
9.2,89.1624506588922685,0.0281478081989118972,1604.91026119246317,221.3199192290773,-22.2821153049361804,76.4221135306380859,337.313059095359733
9.3,83.5227818955715691,0.0239149846850164778,1629.30456172400477,219.64665868559473,-22.7294465076504757,76.3458944364097221,336.852794288125608
9.4,78.2209574786142241,0.0199350791320951626,1653.54005443251413,217.967505063149844,-23.1458835008565913,76.2697395228042723,336.424180094852375
9.5,73.2367816755348429,0.0161929792882969069,1677.61567619571088,216.283952942680543,-23.5005005140308363,76.1928655409359692,336.059075978618409
9.6,68.5512655722364741,0.0126744758829391985,1701.53048251921336,214.597386253538133,-23.7725168239669244,76.1166060272203566,335.778924796012518
9.7,64.1465549588148605,0.0093662086719425372,1725.28363507508902,212.909085487378945,-23.9529693336796861,76.0443640435460537,335.593017871999791
9.8,60.0058625371725896,0.00625561570713542396,1748.87440856815147,211.220233696153343,-24.0432301129693755,75.9803836021236378,335.500003802279423
9.9,56.1134041860336552,0.00333088563679985721,1772.30220709530136,209.531921484681874,-24.0516492359837244,75.9280139781203616,335.491330121686815
10,52.4543390326174617,0.000580912856335001984,1795.56657742672405,207.845152166666566,-23.9901242905123837,75.8882856783623083,335.554768944016018
10.1,0,0,1818.65986817212206,205.984758892946644,-23.871943272103298,75.859386379464155,335.676640002586112
10.2,0,0,1841.56580776307192,204.089392403087345,-23.7112663615120418,75.8371766582066584,335.842350519285503
10.3,0,0,1864.28540070109807,202.214938833573967,-23.5236490141867876,75.8164670981329465,336.035862699596862
10.4,0,0,1886.8203219017978,200.361001374907005,-23.3267107668906917,75.7924914539826631,336.239008217999185
10.5,0,0,1909.17219257068996,198.527193749727189,-23.140041173085514,75.7620043911344681,336.431584707932529
10.6,0,0,1931.34257581661154,196.713140279723774,-22.9839417195486568,75.7236707292958044,336.592648926742982
10.7,0,0,1953.33298270032537,194.918475449027227,-22.8772478076392431,75.6777313520368153,336.702758231384223
10.8,0,0,1975.14488479435681,193.142843131290817,-22.83489064632791,75.6252069699176559,336.746483528881697
10.9,0,0,1996.77972757994371,191.385896009294271,-22.8659239157552996,75.5670338119941505,336.714447615609572
11,0,0,2018.23893948549835,189.647294716059889,-22.9725183248761233,75.5034849346094603,336.60436856341471
11.1,0,0,2039.52393408009766,187.926707747830761,-23.1500921310373791,75.4340638267830315,336.420932033056829
11.2,0,0,2060.63610568312697,186.22381123493895,-23.3884416341020085,75.3578423874586747,336.174630799675299
11.3,0,0,2081.57682124548228,184.538289231800348,-23.6735282514064238,75.2740492530870426,335.879925345933941
11.4,0,0,2102.34741229979409,182.869833651150685,-23.9894800253000646,75.1826449001797812,335.553182119277267
11.5,0,0,2122.94917025980612,181.218144348000777,-24.3203802108019858,75.0846610936462469,335.210830588152021
11.6,0,0,2143.38334679650916,179.582928867022474,-24.6515386688626172,74.982194161555114,334.868052710647191
11.7,0,0,2163.65115905506309,177.963902010567665,-24.9701396966071592,74.8780750972202327,334.538114117430894
11.8,0,0,2183.75379790875286,176.360785279489335,-25.2653637165967773,74.7753424903307291,334.232236350284893
11.9,0,0,2203.69243669785146,174.773306297457594,-25.5282167274061464,74.6766891793856615,333.959768996588252
12,0,0,2223.46823800038555,173.20119831119905,-25.7513302003401883,74.5840369289081906,333.728390949752907
12.1,0,0,2243.08235695539815,171.644199954061719,-25.9289235580351303,74.4983328639561506,333.544142814918928
12.2,0,0,2262.53594087988449,170.102054894447264,-26.0569951647867235,74.4195832039435174,333.411222827120184
12.3,0,0,2281.83012587529129,168.574512124083071,-26.1336803751407807,74.3470732330385005,333.331610371434067
12.4,0,0,2300.96603210826152,167.061325777747356,-26.1596288521809477,74.279679808334734,333.304670497756263
12.5,0,0,2319.94475932573232,165.56225535513849,-26.1382320161105568,74.2161779409151166,333.326914876734975
12.6,0,0,2338.76738395328493,164.077065826916055,-26.0755721754113452,74.1554628808576695,333.392052411261602
12.7,0,0,2357.43495842865696,162.605527364054552,-25.9800473475932208,74.0966479391947672,333.491377254528174
12.8,0,0,2375.94851263790679,161.147415293182547,-25.8617170025377163,74.0390412605107997,333.614447428120002
12.9,0,0,2394.30905679056923,159.702510014968539,-25.7314820840350116,73.9820374827074971,333.749936517246795
13,0,0,2412.51758469828928,158.270596461007727,-25.6002399197152855,73.9249781999225632,333.886512450936493
13.1,0,0,2430.5750764947652,156.851464183515702,-25.4781405691467917,73.8670374619913019,334.013611708018004
13.2,0,0,2448.48250006127,155.444907079870831,-25.3740278515538868,73.8071714343154497,334.1220220201958
13.3,0,0,2466.24081095459223,154.050723218953664,-25.2950963552116441,73.744149569080534,334.204240563477299
13.4,0,0,2483.85095090744244,152.6687150263609,-25.2467500152880326,73.6766594537380684,334.254622283952756
13.5,0,0,2501.31384550988378,151.298689224949129,-25.2326177471972457,73.6034568733997929,334.269364551121612
13.6,0,0,2518.63040168257658,149.940456763756913,-25.2546697739549231,73.5235238141707157,334.246386915247911
13.7,0,0,2535.80150563642746,148.593833024165264,-25.313381306143647,73.4361982314377144,334.185161752223905
13.8,0,0,2552.82802175707911,147.258637773234142,-25.4079030564677062,73.3412483747529649,334.086538238136143
13.9,0,0,2569.7107926796175,145.934694940169834,-25.5362158174583733,73.2388803344903749,333.95258352462298
14,0,0,2586.45064047935875,144.621832554598512,-25.695263768216499,73.129683588661095,333.786446664647713
14.1,0,0,2603.04836867059885,143.319882716983443,-25.8810746184640053,73.0145312996799731,333.592236654701708
14.2,0,0,2619.5047646277535,142.028681164645178,-26.0888822809146639,72.8944586370257781,333.374897910839593
14.3,0,0,2635.82060198616318,140.748067208629863,-26.3132693122665415,72.7705445824625912,333.140064811295701
14.4,0,0,2651.99664260765803,139.477883524915796,-26.548341649508,72.6438162956314102,332.893881834831461
14.5,0,0,2668.03363793703238,138.217976008315446,-26.7879401062266069,72.5151879189966877,332.642784309232752
14.6,0,0,2683.93232963344462,136.968193664884552,-27.0258831751807413,72.3854362759173569,332.39324525583703
14.7,0,0,2699.69344955958604,135.728388540080402,-27.256226534425064,72.2552079622976748,332.151503519095684
14.8,0,0,2715.31771934121343,134.498415674417686,-27.4735182027391183,72.1250469794668874,331.923295260323471
